# tau MSD
0.000000000000000000e+00 0.000000000000000000e+00
1.000000000000000000e+00 6.556264288773235027e-02
2.000000000000000000e+00 1.536402792807875506e-01
3.000000000000000000e+00 2.857892351860581437e-01
4.000000000000000000e+00 4.421271697941098200e-01
5.000000000000000000e+00 5.727222476438358356e-01
6.000000000000000000e+00 7.060346941782600361e-01
7.000000000000000000e+00 8.753986934239813555e-01
8.000000000000000000e+00 1.060854136529897129e+00
9.000000000000000000e+00 1.256012809548609832e+00
1.000000000000000000e+01 1.399052228084396443e+00
1.100000000000000000e+01 1.547873782949978017e+00
1.200000000000000000e+01 1.786824116923585226e+00
1.300000000000000000e+01 2.001553127105497154e+00
1.400000000000000000e+01 2.208163316602942405e+00
1.500000000000000000e+01 2.421990651857999666e+00
1.600000000000000000e+01 2.641322267048424877e+00
1.700000000000000000e+01 2.872464133826724275e+00
1.800000000000000000e+01 3.067179658870335501e+00
1.900000000000000000e+01 3.230885202000233658e+00
2.000000000000000000e+01 3.340009671558965998e+00
2.100000000000000000e+01 3.492578921646286361e+00
2.200000000000000000e+01 3.567851574557090455e+00
2.300000000000000000e+01 3.703360589343582365e+00
2.400000000000000000e+01 3.934099748864836155e+00
2.500000000000000000e+01 4.140012865830127176e+00
2.600000000000000000e+01 4.350626850878789753e+00
2.700000000000000000e+01 4.500026971786397212e+00
2.800000000000000000e+01 4.687614801545144871e+00
2.900000000000000000e+01 4.917169528476964757e+00
3.000000000000000000e+01 5.188211800948772989e+00
3.100000000000000000e+01 5.541247046557000289e+00
3.200000000000000000e+01 5.805134017054545126e+00
3.300000000000000000e+01 5.989150007512039409e+00
3.400000000000000000e+01 6.151176301724222029e+00
3.500000000000000000e+01 6.382604305622277430e+00
3.600000000000000000e+01 6.539624408290031887e+00
3.700000000000000000e+01 6.760715669924106663e+00
3.800000000000000000e+01 6.936782885361659545e+00
3.900000000000000000e+01 7.121681758343513025e+00
4.000000000000000000e+01 7.312150645730047138e+00
4.100000000000000000e+01 7.519087616139869645e+00
4.200000000000000000e+01 7.696882848806262167e+00
4.300000000000000000e+01 7.920027479790168634e+00
4.400000000000000000e+01 8.205478685702900066e+00
4.500000000000000000e+01 8.454486163168935420e+00
4.600000000000000000e+01 8.736204192545523384e+00
4.700000000000000000e+01 8.970463664020451588e+00
4.800000000000000000e+01 9.200366319325880227e+00
4.900000000000000000e+01 9.425853245322077356e+00
5.000000000000000000e+01 9.569516949173856091e+00
5.100000000000000000e+01 9.867444477108367806e+00
5.200000000000000000e+01 1.006512497347753587e+01
5.300000000000000000e+01 1.033741538730653176e+01
5.400000000000000000e+01 1.048333121542950863e+01
5.500000000000000000e+01 1.073971020979489133e+01
5.600000000000000000e+01 1.089855559134813134e+01
5.700000000000000000e+01 1.129479384567588340e+01
5.800000000000000000e+01 1.148522019373594816e+01
5.900000000000000000e+01 1.170560476609149347e+01
6.000000000000000000e+01 1.186544968202966110e+01
6.100000000000000000e+01 1.201277062046606581e+01
6.200000000000000000e+01 1.222794005967751119e+01
6.300000000000000000e+01 1.252153928429327756e+01
6.400000000000000000e+01 1.279149481934711652e+01
6.500000000000000000e+01 1.295860201724418204e+01
6.600000000000000000e+01 1.315631038483243209e+01
6.700000000000000000e+01 1.318719358389751584e+01
6.800000000000000000e+01 1.333115249528820456e+01
6.900000000000000000e+01 1.358332001150591140e+01
7.000000000000000000e+01 1.368914703557834578e+01
7.100000000000000000e+01 1.388120587818406015e+01
7.200000000000000000e+01 1.410120572790124349e+01
7.300000000000000000e+01 1.430910828203311880e+01
7.400000000000000000e+01 1.456019344302234053e+01
7.500000000000000000e+01 1.473309386234834939e+01
7.600000000000000000e+01 1.497143116355614012e+01
7.700000000000000000e+01 1.516178206401865403e+01
7.800000000000000000e+01 1.540226062438981636e+01
7.900000000000000000e+01 1.565741767970037301e+01
8.000000000000000000e+01 1.585736825429354724e+01
8.100000000000000000e+01 1.618761557220583214e+01
8.200000000000000000e+01 1.639209245160283501e+01
8.300000000000000000e+01 1.654191842327243123e+01
8.400000000000000000e+01 1.669099578308467713e+01
8.500000000000000000e+01 1.681956122741355841e+01
8.600000000000000000e+01 1.693570997312034976e+01
8.700000000000000000e+01 1.721281104474070744e+01
8.800000000000000000e+01 1.751198939049852044e+01
8.900000000000000000e+01 1.787826821597892746e+01
9.000000000000000000e+01 1.822560397669666088e+01
9.100000000000000000e+01 1.849758632023775107e+01
9.200000000000000000e+01 1.872081527689945446e+01
9.300000000000000000e+01 1.906965017758607317e+01
9.400000000000000000e+01 1.923573821320314892e+01
9.500000000000000000e+01 1.930048159114663875e+01
9.600000000000000000e+01 1.947254931583022142e+01
9.700000000000000000e+01 1.959985168781978615e+01
9.800000000000000000e+01 1.979478435585659213e+01
9.900000000000000000e+01 2.018769420272915838e+01
1.000000000000000000e+02 2.031859013449227191e+01
1.010000000000000000e+02 2.047702493102123711e+01
1.020000000000000000e+02 2.058965099466325910e+01
1.030000000000000000e+02 2.072983813618565563e+01
1.040000000000000000e+02 2.094798797144853353e+01
1.050000000000000000e+02 2.124656752514122005e+01
1.060000000000000000e+02 2.146981577452839574e+01
1.070000000000000000e+02 2.165484407934309274e+01
1.080000000000000000e+02 2.191802862496593818e+01
1.090000000000000000e+02 2.215902980570741576e+01
1.100000000000000000e+02 2.237041460979861185e+01
1.110000000000000000e+02 2.254444275190630620e+01
1.120000000000000000e+02 2.263737927496114466e+01
1.130000000000000000e+02 2.272124660091428439e+01
1.140000000000000000e+02 2.296825325782414495e+01
1.150000000000000000e+02 2.314628916912965551e+01
1.160000000000000000e+02 2.355439473493595059e+01
1.170000000000000000e+02 2.378157669564559029e+01
1.180000000000000000e+02 2.384536982996234755e+01
1.190000000000000000e+02 2.417662291377447659e+01
1.200000000000000000e+02 2.450912008865502045e+01
1.210000000000000000e+02 2.489432682115091566e+01
1.220000000000000000e+02 2.502525882443838157e+01
1.230000000000000000e+02 2.521141023279838933e+01
1.240000000000000000e+02 2.560838416560540054e+01
1.250000000000000000e+02 2.589049006661310059e+01
1.260000000000000000e+02 2.630708303131932979e+01
1.270000000000000000e+02 2.641236080157255373e+01
1.280000000000000000e+02 2.674892408339296068e+01
1.290000000000000000e+02 2.702791870111313344e+01
1.300000000000000000e+02 2.714003942771756783e+01
1.310000000000000000e+02 2.749559297746681352e+01
1.320000000000000000e+02 2.773956322135567021e+01
1.330000000000000000e+02 2.811262554418604509e+01
1.340000000000000000e+02 2.844375415931820328e+01
1.350000000000000000e+02 2.877508417757617920e+01
1.360000000000000000e+02 2.912609330380583827e+01
1.370000000000000000e+02 2.949635243343311686e+01
1.380000000000000000e+02 2.967698582940655783e+01
1.390000000000000000e+02 2.980954163938173096e+01
1.400000000000000000e+02 3.005129926587217781e+01
1.410000000000000000e+02 3.044943317685847006e+01
1.420000000000000000e+02 3.085577490305989201e+01
1.430000000000000000e+02 3.105888892916069821e+01
1.440000000000000000e+02 3.121447146011804818e+01
1.450000000000000000e+02 3.143990228193896641e+01
1.460000000000000000e+02 3.175745633553091096e+01
1.470000000000000000e+02 3.199286990010045528e+01
1.480000000000000000e+02 3.223944322706385179e+01
1.490000000000000000e+02 3.237675277138198027e+01
1.500000000000000000e+02 3.260504798197370491e+01
1.510000000000000000e+02 3.273229657251539493e+01
1.520000000000000000e+02 3.298266184185932559e+01
1.530000000000000000e+02 3.328733202264157143e+01
1.540000000000000000e+02 3.337634704552246490e+01
1.550000000000000000e+02 3.343850716189857053e+01
1.560000000000000000e+02 3.354422259423220254e+01
1.570000000000000000e+02 3.383047684036566949e+01
1.580000000000000000e+02 3.423543874167264534e+01
1.590000000000000000e+02 3.455651186481625814e+01
1.600000000000000000e+02 3.498530825271215150e+01
1.610000000000000000e+02 3.510349224554806824e+01
1.620000000000000000e+02 3.537715751377110251e+01
1.630000000000000000e+02 3.561023775308075301e+01
1.640000000000000000e+02 3.598072295238812046e+01
1.650000000000000000e+02 3.626135996710071652e+01
1.660000000000000000e+02 3.659309460916815482e+01
1.670000000000000000e+02 3.703440588223839569e+01
1.680000000000000000e+02 3.735965581295580762e+01
1.690000000000000000e+02 3.762182394548471365e+01
1.700000000000000000e+02 3.786826914233886754e+01
1.710000000000000000e+02 3.814846992849322760e+01
1.720000000000000000e+02 3.839702363054641410e+01
1.730000000000000000e+02 3.880912767556075949e+01
1.740000000000000000e+02 3.908588789284187470e+01
1.750000000000000000e+02 3.926805053040286708e+01
1.760000000000000000e+02 3.970042177171263376e+01
1.770000000000000000e+02 3.989113499771540461e+01
1.780000000000000000e+02 4.004113383714086893e+01
1.790000000000000000e+02 4.023891314661828744e+01
1.800000000000000000e+02 4.060878737558628160e+01
1.810000000000000000e+02 4.053013781156914774e+01
1.820000000000000000e+02 4.057939010415573478e+01
1.830000000000000000e+02 4.061157991265724831e+01
1.840000000000000000e+02 4.077742902442926720e+01
1.850000000000000000e+02 4.108181104440480169e+01
1.860000000000000000e+02 4.122950961897875999e+01
1.870000000000000000e+02 4.148951367813445046e+01
1.880000000000000000e+02 4.171481968257657513e+01
1.890000000000000000e+02 4.219820551230392880e+01
1.900000000000000000e+02 4.255266319511027717e+01
1.910000000000000000e+02 4.280989663211580876e+01
1.920000000000000000e+02 4.301101922679237077e+01
1.930000000000000000e+02 4.341166149254960516e+01
1.940000000000000000e+02 4.344356007967967770e+01
1.950000000000000000e+02 4.373899055841390293e+01
1.960000000000000000e+02 4.402798537257608302e+01
1.970000000000000000e+02 4.431851149428928949e+01
1.980000000000000000e+02 4.429237170096229903e+01
1.990000000000000000e+02 4.403208563156050559e+01
2.000000000000000000e+02 4.395271787132588059e+01
2.010000000000000000e+02 4.409741516126565131e+01
2.020000000000000000e+02 4.414544143628828721e+01
2.030000000000000000e+02 4.436156125887395518e+01
2.040000000000000000e+02 4.452294713144029714e+01
2.050000000000000000e+02 4.471347273806797062e+01
2.060000000000000000e+02 4.471312780221456507e+01
2.070000000000000000e+02 4.519272282189857037e+01
2.080000000000000000e+02 4.537325671102959745e+01
2.090000000000000000e+02 4.581522990158153874e+01
2.100000000000000000e+02 4.598377182471509883e+01
2.110000000000000000e+02 4.594714711419214126e+01
2.120000000000000000e+02 4.585755041569433388e+01
2.130000000000000000e+02 4.591510201962061899e+01
2.140000000000000000e+02 4.630229094075116336e+01
2.150000000000000000e+02 4.639685880589009770e+01
2.160000000000000000e+02 4.652841531474184222e+01
2.170000000000000000e+02 4.672252266923158714e+01
2.180000000000000000e+02 4.679246576844497696e+01
2.190000000000000000e+02 4.692995752866760029e+01
2.200000000000000000e+02 4.702930163021612486e+01
2.210000000000000000e+02 4.727589335683916261e+01
2.220000000000000000e+02 4.730400066588016728e+01
2.230000000000000000e+02 4.761887318197432961e+01
2.240000000000000000e+02 4.785255001523019303e+01
2.250000000000000000e+02 4.802021396466092540e+01
2.260000000000000000e+02 4.848474756804295538e+01
2.270000000000000000e+02 4.884108640967149029e+01
2.280000000000000000e+02 4.916782402530729001e+01
2.290000000000000000e+02 4.910234771040141766e+01
2.300000000000000000e+02 4.892525913206536359e+01
2.310000000000000000e+02 4.893190660024461636e+01
2.320000000000000000e+02 4.917956207407509339e+01
2.330000000000000000e+02 4.952610734001702042e+01
2.340000000000000000e+02 4.993879776082152944e+01
2.350000000000000000e+02 5.052763777861562033e+01
2.360000000000000000e+02 5.065591872829813269e+01
2.370000000000000000e+02 5.097225825385888953e+01
2.380000000000000000e+02 5.169591971224173221e+01
2.390000000000000000e+02 5.208741213783374491e+01
2.400000000000000000e+02 5.247647522069749471e+01
2.410000000000000000e+02 5.305779125097188853e+01
2.420000000000000000e+02 5.345244238998550657e+01
2.430000000000000000e+02 5.381223235568396746e+01
2.440000000000000000e+02 5.399601191750513607e+01
2.450000000000000000e+02 5.451657198339891153e+01
2.460000000000000000e+02 5.461397351634158781e+01
2.470000000000000000e+02 5.477862545705997377e+01
2.480000000000000000e+02 5.517621430530738991e+01
2.490000000000000000e+02 5.566998356872002773e+01
2.500000000000000000e+02 5.610007852398695150e+01
2.510000000000000000e+02 5.631281456059234358e+01
2.520000000000000000e+02 5.644174751687037173e+01
2.530000000000000000e+02 5.666901588872606510e+01
2.540000000000000000e+02 5.708780446343980941e+01
2.550000000000000000e+02 5.740103362419043265e+01
2.560000000000000000e+02 5.739791210574141189e+01
2.570000000000000000e+02 5.722360169839645039e+01
2.580000000000000000e+02 5.745101042106242062e+01
2.590000000000000000e+02 5.775440885389016188e+01
2.600000000000000000e+02 5.806363854508618516e+01
2.610000000000000000e+02 5.830988365004444063e+01
2.620000000000000000e+02 5.822117307899006988e+01
2.630000000000000000e+02 5.849072932353485754e+01
2.640000000000000000e+02 5.852058378482634282e+01
2.650000000000000000e+02 5.867974257578110553e+01
2.660000000000000000e+02 5.901148626259862340e+01
2.670000000000000000e+02 5.920157534446536118e+01
2.680000000000000000e+02 5.950847467160527771e+01
2.690000000000000000e+02 5.950096323647431262e+01
2.700000000000000000e+02 5.966293749055905238e+01
2.710000000000000000e+02 5.973400392073745024e+01
2.720000000000000000e+02 6.004660786538453721e+01
2.730000000000000000e+02 6.014047763741434238e+01
2.740000000000000000e+02 6.018426560630540223e+01
2.750000000000000000e+02 6.012061732473134867e+01
2.760000000000000000e+02 6.038372542539990206e+01
2.770000000000000000e+02 6.113837290784388045e+01
2.780000000000000000e+02 6.143509703140680500e+01
2.790000000000000000e+02 6.152168684134887400e+01
2.800000000000000000e+02 6.166075867934075916e+01
2.810000000000000000e+02 6.221227396082392858e+01
2.820000000000000000e+02 6.252577084132581575e+01
2.830000000000000000e+02 6.277682936796495738e+01
2.840000000000000000e+02 6.276908395104268834e+01
2.850000000000000000e+02 6.272385287333157322e+01
2.860000000000000000e+02 6.278821721453970639e+01
2.870000000000000000e+02 6.282720627907274746e+01
2.880000000000000000e+02 6.314713344092607628e+01
2.890000000000000000e+02 6.336367679887548121e+01
2.900000000000000000e+02 6.350753754930723716e+01
2.910000000000000000e+02 6.395993318306275199e+01
2.920000000000000000e+02 6.443179911906496216e+01
2.930000000000000000e+02 6.469043621787476184e+01
2.940000000000000000e+02 6.490081277314487807e+01
2.950000000000000000e+02 6.503417015353696229e+01
2.960000000000000000e+02 6.557629938994985253e+01
2.970000000000000000e+02 6.578261590700576278e+01
2.980000000000000000e+02 6.612485054552091412e+01
2.990000000000000000e+02 6.626172803196517691e+01
3.000000000000000000e+02 6.661933005231422555e+01
3.010000000000000000e+02 6.678241668511718387e+01
3.020000000000000000e+02 6.672726848298533753e+01
3.030000000000000000e+02 6.713696786709519415e+01
3.040000000000000000e+02 6.750964941474622094e+01
3.050000000000000000e+02 6.781082685677839095e+01
3.060000000000000000e+02 6.832907665505214823e+01
3.070000000000000000e+02 6.889757451038079239e+01
3.080000000000000000e+02 6.948542329420668295e+01
3.090000000000000000e+02 6.964079547715878959e+01
3.100000000000000000e+02 6.991575182962975532e+01
3.110000000000000000e+02 7.001441504494432877e+01
3.120000000000000000e+02 7.008529731841235844e+01
3.130000000000000000e+02 7.025344460586693174e+01
3.140000000000000000e+02 7.029069884935780976e+01
3.150000000000000000e+02 7.070549867767833518e+01
3.160000000000000000e+02 7.102553127419768941e+01
3.170000000000000000e+02 7.114367041319366081e+01
3.180000000000000000e+02 7.142301829975893668e+01
3.190000000000000000e+02 7.173743825562230825e+01
3.200000000000000000e+02 7.227713742899808835e+01
3.210000000000000000e+02 7.275568675832478505e+01
3.220000000000000000e+02 7.285966645288372945e+01
3.230000000000000000e+02 7.287316722283937054e+01
3.240000000000000000e+02 7.300298978989144416e+01
3.250000000000000000e+02 7.323510936231025426e+01
3.260000000000000000e+02 7.349452454193756523e+01
3.270000000000000000e+02 7.378309479572997986e+01
3.280000000000000000e+02 7.379781560494647863e+01
3.290000000000000000e+02 7.368490786648780499e+01
3.300000000000000000e+02 7.428604237349125583e+01
3.310000000000000000e+02 7.469673589523992518e+01
3.320000000000000000e+02 7.497393802808755936e+01
3.330000000000000000e+02 7.508485638983194121e+01
3.340000000000000000e+02 7.559103149299640734e+01
3.350000000000000000e+02 7.568967770139789764e+01
3.360000000000000000e+02 7.576773363716954179e+01
3.370000000000000000e+02 7.602103692701035698e+01
3.380000000000000000e+02 7.615879871955866065e+01
3.390000000000000000e+02 7.648882439822283175e+01
3.400000000000000000e+02 7.649318929107636222e+01
3.410000000000000000e+02 7.642837496555301868e+01
3.420000000000000000e+02 7.677389000625490212e+01
3.430000000000000000e+02 7.701355876231762920e+01
3.440000000000000000e+02 7.679569742237281105e+01
3.450000000000000000e+02 7.706807156346462762e+01
3.460000000000000000e+02 7.694343986727368190e+01
3.470000000000000000e+02 7.695222666191241956e+01
3.480000000000000000e+02 7.723532896178326723e+01
3.490000000000000000e+02 7.737102442482159859e+01
3.500000000000000000e+02 7.754275160230396580e+01
3.510000000000000000e+02 7.779426733907844493e+01
3.520000000000000000e+02 7.795596378691543293e+01
3.530000000000000000e+02 7.836674643952648012e+01
3.540000000000000000e+02 7.884420142837980450e+01
3.550000000000000000e+02 7.906859769590893450e+01
3.560000000000000000e+02 7.926588906485366692e+01
3.570000000000000000e+02 7.961300454919981462e+01
3.580000000000000000e+02 8.019068339220565633e+01
3.590000000000000000e+02 8.051579387618687633e+01
3.600000000000000000e+02 8.091321172086614411e+01
3.610000000000000000e+02 8.106832563195305852e+01
3.620000000000000000e+02 8.132935408807715305e+01
3.630000000000000000e+02 8.158331488288385458e+01
3.640000000000000000e+02 8.199462467097768581e+01
3.650000000000000000e+02 8.261082019909447638e+01
3.660000000000000000e+02 8.268002039576634843e+01
3.670000000000000000e+02 8.270850035275667267e+01
3.680000000000000000e+02 8.310263579263919098e+01
3.690000000000000000e+02 8.317123166004296309e+01
3.700000000000000000e+02 8.339748126102244896e+01
3.710000000000000000e+02 8.397820338233412940e+01
3.720000000000000000e+02 8.438696444287869269e+01
3.730000000000000000e+02 8.464449217182435348e+01
3.740000000000000000e+02 8.476481122360769405e+01
3.750000000000000000e+02 8.527153169647678510e+01
3.760000000000000000e+02 8.514914070459001039e+01
3.770000000000000000e+02 8.552696584934589907e+01
3.780000000000000000e+02 8.610001966251314798e+01
3.790000000000000000e+02 8.672320792771384390e+01
3.800000000000000000e+02 8.709168303586817217e+01
3.810000000000000000e+02 8.757196424394359724e+01
3.820000000000000000e+02 8.803097529681446076e+01
3.830000000000000000e+02 8.842714240681659987e+01
3.840000000000000000e+02 8.876678537279416048e+01
3.850000000000000000e+02 8.896430399575801573e+01
3.860000000000000000e+02 8.891360292282047340e+01
3.870000000000000000e+02 8.933324711955584974e+01
3.880000000000000000e+02 8.958781794060585923e+01
3.890000000000000000e+02 8.952060049282763998e+01
3.900000000000000000e+02 8.971725471003918528e+01
3.910000000000000000e+02 8.982448441430044284e+01
3.920000000000000000e+02 9.003042948438084636e+01
3.930000000000000000e+02 9.043747765305289477e+01
3.940000000000000000e+02 9.116794451983891179e+01
3.950000000000000000e+02 9.107848347211732687e+01
3.960000000000000000e+02 9.129398812334568447e+01
3.970000000000000000e+02 9.151357075635522165e+01
3.980000000000000000e+02 9.167319643870187917e+01
