# tau MSD
1.000000000000000000e+00 1.250327199857474536e+00
2.000000000000000000e+00 2.019081336501545199e+00
3.000000000000000000e+00 2.633705890831209651e+00
4.000000000000000000e+00 3.164375712332781809e+00
5.000000000000000000e+00 3.643348023642141609e+00
6.000000000000000000e+00 4.072696644601106364e+00
7.000000000000000000e+00 4.478249919318530559e+00
8.000000000000000000e+00 4.862758755270297328e+00
9.000000000000000000e+00 5.228933485216836985e+00
1.000000000000000000e+01 5.568029828227331279e+00
1.100000000000000000e+01 5.896686852169712445e+00
1.200000000000000000e+01 6.212580312233581203e+00
1.300000000000000000e+01 6.520052985902043297e+00
1.400000000000000000e+01 6.817892440647447927e+00
1.500000000000000000e+01 7.108043916239279447e+00
1.600000000000000000e+01 7.398768358715074100e+00
1.700000000000000000e+01 7.682597436247242229e+00
1.800000000000000000e+01 7.952904170490188385e+00
1.900000000000000000e+01 8.218052920474457679e+00
2.000000000000000000e+01 8.476399698868544164e+00
2.100000000000000000e+01 8.731327654409190231e+00
2.200000000000000000e+01 8.977601560948553328e+00
2.300000000000000000e+01 9.219626204546301551e+00
2.400000000000000000e+01 9.461211869094366733e+00
2.500000000000000000e+01 9.707432875297538288e+00
2.600000000000000000e+01 9.945521932768725648e+00
2.700000000000000000e+01 1.017673358923551952e+01
2.800000000000000000e+01 1.040053450018094949e+01
2.900000000000000000e+01 1.062528028073529285e+01
3.000000000000000000e+01 1.083738101340918014e+01
3.100000000000000000e+01 1.105077608145445645e+01
3.200000000000000000e+01 1.126081505548921591e+01
3.300000000000000000e+01 1.147288592824756925e+01
3.400000000000000000e+01 1.167907355343322173e+01
3.500000000000000000e+01 1.188719739324909952e+01
3.600000000000000000e+01 1.209334666465320574e+01
3.700000000000000000e+01 1.230048391467561331e+01
3.800000000000000000e+01 1.249816572458313679e+01
3.900000000000000000e+01 1.269536347496718420e+01
4.000000000000000000e+01 1.289275577488739444e+01
4.100000000000000000e+01 1.308140944399681871e+01
4.200000000000000000e+01 1.326904342214203325e+01
4.300000000000000000e+01 1.345328278402832112e+01
4.400000000000000000e+01 1.364127013492888274e+01
4.500000000000000000e+01 1.382758916048403286e+01
4.600000000000000000e+01 1.401501600730133212e+01
4.700000000000000000e+01 1.419783532872120624e+01
4.800000000000000000e+01 1.438160419047503602e+01
4.900000000000000000e+01 1.455975932233422476e+01
5.000000000000000000e+01 1.473596279037697876e+01
5.100000000000000000e+01 1.491022178514578833e+01
5.200000000000000000e+01 1.508815602534884626e+01
5.300000000000000000e+01 1.526342048501378734e+01
5.400000000000000000e+01 1.544325009907910484e+01
5.500000000000000000e+01 1.561497301491917788e+01
5.600000000000000000e+01 1.578867598011511575e+01
5.700000000000000000e+01 1.596129692887282125e+01
5.800000000000000000e+01 1.614035966125019783e+01
5.900000000000000000e+01 1.630810681032012965e+01
6.000000000000000000e+01 1.647595972337714088e+01
6.100000000000000000e+01 1.663828340728409216e+01
6.200000000000000000e+01 1.680668205172148078e+01
6.300000000000000000e+01 1.697548554865216985e+01
6.400000000000000000e+01 1.713596219525972941e+01
6.500000000000000000e+01 1.729352376048391093e+01
6.600000000000000000e+01 1.744836958914563496e+01
6.700000000000000000e+01 1.760824538933572825e+01
6.800000000000000000e+01 1.776606589889281551e+01
6.900000000000000000e+01 1.792074202280949891e+01
7.000000000000000000e+01 1.807827789595794954e+01
7.100000000000000000e+01 1.823492323195077347e+01
7.200000000000000000e+01 1.839173759751091097e+01
7.300000000000000000e+01 1.854891359659210082e+01
7.400000000000000000e+01 1.870743023974513974e+01
7.500000000000000000e+01 1.886678392735675658e+01
7.600000000000000000e+01 1.902411575000872901e+01
7.700000000000000000e+01 1.917525875121118162e+01
7.800000000000000000e+01 1.932683224251486465e+01
7.900000000000000000e+01 1.947794651825633139e+01
8.000000000000000000e+01 1.962137502466725181e+01
8.100000000000000000e+01 1.976308563785375227e+01
8.200000000000000000e+01 1.990467350705139893e+01
8.300000000000000000e+01 2.004648682112942026e+01
8.400000000000000000e+01 2.018587062842098945e+01
8.500000000000000000e+01 2.032475503779176762e+01
8.600000000000000000e+01 2.046338329388350274e+01
8.700000000000000000e+01 2.059902622270859496e+01
8.800000000000000000e+01 2.073627299147668168e+01
8.900000000000000000e+01 2.087146583215105977e+01
9.000000000000000000e+01 2.100716504133225371e+01
9.100000000000000000e+01 2.115003751355599348e+01
9.200000000000000000e+01 2.129641355633394895e+01
9.300000000000000000e+01 2.143830573152325059e+01
9.400000000000000000e+01 2.157675311900296933e+01
9.500000000000000000e+01 2.171563941108768603e+01
9.600000000000000000e+01 2.185628198484667450e+01
9.700000000000000000e+01 2.200182787598826550e+01
9.800000000000000000e+01 2.214452814726700325e+01
9.900000000000000000e+01 2.228340419082687163e+01
1.000000000000000000e+02 2.241920134509708973e+01
1.010000000000000000e+02 2.254820999858895902e+01
1.020000000000000000e+02 2.268216776254066502e+01
1.030000000000000000e+02 2.281302342959946117e+01
1.040000000000000000e+02 2.293858472363047341e+01
1.050000000000000000e+02 2.306661973128627352e+01
1.060000000000000000e+02 2.319296729330707763e+01
1.070000000000000000e+02 2.332143678842661672e+01
1.080000000000000000e+02 2.344928692076586429e+01
1.090000000000000000e+02 2.357913848597167217e+01
1.100000000000000000e+02 2.371151759651744584e+01
1.110000000000000000e+02 2.384212621608920202e+01
1.120000000000000000e+02 2.397490574728089285e+01
1.130000000000000000e+02 2.411343646967417698e+01
1.140000000000000000e+02 2.424963340441934889e+01
1.150000000000000000e+02 2.438049051129284450e+01
1.160000000000000000e+02 2.451193979729221084e+01
1.170000000000000000e+02 2.464065201806515759e+01
1.180000000000000000e+02 2.477061874523172591e+01
1.190000000000000000e+02 2.489929198680594880e+01
1.200000000000000000e+02 2.502590354615360724e+01
1.210000000000000000e+02 2.515607971294909717e+01
1.220000000000000000e+02 2.528018679940982238e+01
1.230000000000000000e+02 2.540769789965451508e+01
1.240000000000000000e+02 2.553938868596878820e+01
1.250000000000000000e+02 2.566575964390360554e+01
1.260000000000000000e+02 2.579165005666673594e+01
1.270000000000000000e+02 2.591223248497336584e+01
1.280000000000000000e+02 2.603160537117597073e+01
1.290000000000000000e+02 2.615617623237822187e+01
1.300000000000000000e+02 2.627674427741477459e+01
1.310000000000000000e+02 2.639840828443225362e+01
1.320000000000000000e+02 2.651997900456193946e+01
1.330000000000000000e+02 2.664794318353303382e+01
1.340000000000000000e+02 2.676918019708416097e+01
1.350000000000000000e+02 2.688914673545410849e+01
1.360000000000000000e+02 2.700864104461915716e+01
1.370000000000000000e+02 2.713304316472245858e+01
1.380000000000000000e+02 2.725294878765977913e+01
1.390000000000000000e+02 2.737655970710896369e+01
1.400000000000000000e+02 2.750047564306697012e+01
1.410000000000000000e+02 2.761983611198916577e+01
1.420000000000000000e+02 2.773898437192682565e+01
1.430000000000000000e+02 2.785978889611839193e+01
1.440000000000000000e+02 2.798326477405025159e+01
1.450000000000000000e+02 2.810155648524754923e+01
1.460000000000000000e+02 2.822072255519881168e+01
1.470000000000000000e+02 2.833833338572721772e+01
1.480000000000000000e+02 2.846236156056615840e+01
1.490000000000000000e+02 2.858359720759951372e+01
1.500000000000000000e+02 2.870250598929681018e+01
1.510000000000000000e+02 2.881395127212733343e+01
1.520000000000000000e+02 2.893211391298796187e+01
1.530000000000000000e+02 2.904857502223541843e+01
1.540000000000000000e+02 2.916213521166321243e+01
1.550000000000000000e+02 2.927462993631253951e+01
1.560000000000000000e+02 2.939633190907408533e+01
1.570000000000000000e+02 2.951799961875882516e+01
1.580000000000000000e+02 2.963468633208225356e+01
1.590000000000000000e+02 2.975148480455994715e+01
1.600000000000000000e+02 2.986588231260783388e+01
1.610000000000000000e+02 2.998263821408009377e+01
1.620000000000000000e+02 3.009919658988312818e+01
1.630000000000000000e+02 3.021519341654137136e+01
1.640000000000000000e+02 3.032450639958559435e+01
1.650000000000000000e+02 3.043668048340221688e+01
1.660000000000000000e+02 3.055112084340957068e+01
1.670000000000000000e+02 3.066263482238355209e+01
1.680000000000000000e+02 3.077441326011961564e+01
1.690000000000000000e+02 3.089210646845382513e+01
1.700000000000000000e+02 3.101501434122766199e+01
1.710000000000000000e+02 3.112963688834939902e+01
1.720000000000000000e+02 3.124181991833554406e+01
1.730000000000000000e+02 3.135645933382459205e+01
1.740000000000000000e+02 3.147243011224204423e+01
1.750000000000000000e+02 3.158888222573066429e+01
1.760000000000000000e+02 3.170533191841287746e+01
1.770000000000000000e+02 3.181906000014090097e+01
1.780000000000000000e+02 3.192632599565208551e+01
1.790000000000000000e+02 3.203364979447208327e+01
1.800000000000000000e+02 3.213855219115974649e+01
1.810000000000000000e+02 3.223825051737744474e+01
1.820000000000000000e+02 3.234753190446668469e+01
1.830000000000000000e+02 3.245351984491073694e+01
1.840000000000000000e+02 3.255993751281205562e+01
1.850000000000000000e+02 3.266530874545829022e+01
1.860000000000000000e+02 3.276936901194708440e+01
1.870000000000000000e+02 3.287714612396176506e+01
1.880000000000000000e+02 3.298189919338155107e+01
1.890000000000000000e+02 3.309261024946955843e+01
1.900000000000000000e+02 3.320520129474033411e+01
1.910000000000000000e+02 3.331232586420885156e+01
1.920000000000000000e+02 3.341008060592658779e+01
1.930000000000000000e+02 3.351861678200224759e+01
1.940000000000000000e+02 3.362430955919298015e+01
1.950000000000000000e+02 3.373322146685800504e+01
1.960000000000000000e+02 3.384607199297210656e+01
1.970000000000000000e+02 3.395991606579313782e+01
1.980000000000000000e+02 3.406631344622964974e+01
1.990000000000000000e+02 3.417944193152310817e+01
2.000000000000000000e+02 3.429100957085724133e+01
2.010000000000000000e+02 3.439673903911247521e+01
2.020000000000000000e+02 3.450611337580420468e+01
2.030000000000000000e+02 3.461268633825869045e+01
2.040000000000000000e+02 3.472238033351707998e+01
2.050000000000000000e+02 3.483408852407987411e+01
2.060000000000000000e+02 3.493826722216800817e+01
2.070000000000000000e+02 3.504086101975251211e+01
2.080000000000000000e+02 3.514322082429778504e+01
2.090000000000000000e+02 3.524966681756092157e+01
2.100000000000000000e+02 3.535635246393970021e+01
2.110000000000000000e+02 3.545531806259086949e+01
2.120000000000000000e+02 3.555393488522516066e+01
2.130000000000000000e+02 3.565525975064110042e+01
2.140000000000000000e+02 3.575301816919357378e+01
2.150000000000000000e+02 3.585724132073824677e+01
2.160000000000000000e+02 3.595559201489032830e+01
2.170000000000000000e+02 3.606103044811557368e+01
2.180000000000000000e+02 3.616183414168179411e+01
2.190000000000000000e+02 3.626364036573679783e+01
2.200000000000000000e+02 3.636455333609831797e+01
2.210000000000000000e+02 3.646540620576369918e+01
2.220000000000000000e+02 3.656767882275177328e+01
2.230000000000000000e+02 3.666316594539564733e+01
2.240000000000000000e+02 3.676388503291352094e+01
2.250000000000000000e+02 3.686696799973682914e+01
2.260000000000000000e+02 3.697101079222112219e+01
2.270000000000000000e+02 3.706963851137251709e+01
2.280000000000000000e+02 3.716709373382363424e+01
2.290000000000000000e+02 3.726352618750480161e+01
2.300000000000000000e+02 3.736151277571777030e+01
2.310000000000000000e+02 3.746082864785522304e+01
2.320000000000000000e+02 3.755777947345218593e+01
2.330000000000000000e+02 3.765244161520255517e+01
2.340000000000000000e+02 3.775107268716307374e+01
2.350000000000000000e+02 3.785404308454146616e+01
2.360000000000000000e+02 3.795944386063496978e+01
2.370000000000000000e+02 3.806438359511239611e+01
2.380000000000000000e+02 3.816594801590144215e+01
2.390000000000000000e+02 3.826932368535342732e+01
2.400000000000000000e+02 3.837089218533756707e+01
2.410000000000000000e+02 3.847244634636666660e+01
2.420000000000000000e+02 3.857352507616811010e+01
2.430000000000000000e+02 3.867663588491775783e+01
2.440000000000000000e+02 3.877832307521775590e+01
2.450000000000000000e+02 3.887216784310784590e+01
2.460000000000000000e+02 3.896694678173130910e+01
2.470000000000000000e+02 3.906236503391455983e+01
2.480000000000000000e+02 3.915443258069963406e+01
2.490000000000000000e+02 3.925275450671525590e+01
2.500000000000000000e+02 3.935430036364805773e+01
2.510000000000000000e+02 3.945192033750410587e+01
2.520000000000000000e+02 3.955691363073189137e+01
2.530000000000000000e+02 3.965357216852859068e+01
2.540000000000000000e+02 3.975025299320110150e+01
2.550000000000000000e+02 3.984855592940150615e+01
2.560000000000000000e+02 3.995199389990214911e+01
2.570000000000000000e+02 4.005493397951649115e+01
2.580000000000000000e+02 4.015370183835107554e+01
2.590000000000000000e+02 4.025244281677346692e+01
2.600000000000000000e+02 4.035541370580958898e+01
2.610000000000000000e+02 4.045992114800888828e+01
2.620000000000000000e+02 4.056089810584897037e+01
2.630000000000000000e+02 4.065845476504828326e+01
2.640000000000000000e+02 4.076165875093202828e+01
2.650000000000000000e+02 4.085386187357176624e+01
2.660000000000000000e+02 4.094330412728418622e+01
2.670000000000000000e+02 4.103812866521640501e+01
2.680000000000000000e+02 4.112970357236290653e+01
2.690000000000000000e+02 4.122022258631961478e+01
2.700000000000000000e+02 4.131154572588373242e+01
2.710000000000000000e+02 4.140560011927879458e+01
2.720000000000000000e+02 4.149968679130027738e+01
2.730000000000000000e+02 4.159398956878413145e+01
2.740000000000000000e+02 4.168586236299343994e+01
2.750000000000000000e+02 4.177987751255302840e+01
2.760000000000000000e+02 4.186961008588396282e+01
2.770000000000000000e+02 4.196114579085998031e+01
2.780000000000000000e+02 4.204861326165043778e+01
2.790000000000000000e+02 4.212993200501919233e+01
2.800000000000000000e+02 4.221315097053679466e+01
2.810000000000000000e+02 4.229403153870703846e+01
2.820000000000000000e+02 4.237185329278265300e+01
2.830000000000000000e+02 4.245669800713010034e+01
2.840000000000000000e+02 4.254609759046512352e+01
2.850000000000000000e+02 4.263131281318761978e+01
2.860000000000000000e+02 4.271167333810597455e+01
2.870000000000000000e+02 4.279724678280170025e+01
2.880000000000000000e+02 4.288847159251714913e+01
2.890000000000000000e+02 4.297874610217203184e+01
2.900000000000000000e+02 4.307064754800469331e+01
2.910000000000000000e+02 4.315919388850305438e+01
2.920000000000000000e+02 4.325271713777670612e+01
2.930000000000000000e+02 4.334437558031206095e+01
2.940000000000000000e+02 4.343055359067311372e+01
2.950000000000000000e+02 4.351439819940789278e+01
2.960000000000000000e+02 4.360004368224558391e+01
2.970000000000000000e+02 4.368413859885472306e+01
2.980000000000000000e+02 4.376367945400385651e+01
2.990000000000000000e+02 4.384262924602128209e+01
3.000000000000000000e+02 4.392339639370409543e+01
3.010000000000000000e+02 4.400690012402083084e+01
3.020000000000000000e+02 4.409111481848874092e+01
3.030000000000000000e+02 4.416893368781718721e+01
3.040000000000000000e+02 4.424504533974932485e+01
3.050000000000000000e+02 4.432780702917877136e+01
3.060000000000000000e+02 4.440868674255460746e+01
3.070000000000000000e+02 4.449197223376544486e+01
3.080000000000000000e+02 4.457799398182341832e+01
3.090000000000000000e+02 4.466562370215691402e+01
3.100000000000000000e+02 4.475386017321800836e+01
3.110000000000000000e+02 4.484232120785242159e+01
3.120000000000000000e+02 4.492707104953684194e+01
3.130000000000000000e+02 4.500926380683278438e+01
3.140000000000000000e+02 4.509154713728629815e+01
3.150000000000000000e+02 4.516865467175711757e+01
3.160000000000000000e+02 4.525112534778099871e+01
3.170000000000000000e+02 4.533308337278702282e+01
3.180000000000000000e+02 4.541274613842786323e+01
3.190000000000000000e+02 4.549626518185795732e+01
3.200000000000000000e+02 4.558117906235704453e+01
3.210000000000000000e+02 4.567028808950807672e+01
3.220000000000000000e+02 4.575676898173635720e+01
3.230000000000000000e+02 4.584425200621189589e+01
3.240000000000000000e+02 4.592840218985104173e+01
3.250000000000000000e+02 4.601686976069198209e+01
3.260000000000000000e+02 4.610691790127774681e+01
3.270000000000000000e+02 4.619383357164863213e+01
3.280000000000000000e+02 4.628110219498921651e+01
3.290000000000000000e+02 4.637362969750951436e+01
3.300000000000000000e+02 4.646745206654166793e+01
3.310000000000000000e+02 4.656158529269201551e+01
3.320000000000000000e+02 4.665407149109951490e+01
3.330000000000000000e+02 4.674223259406768705e+01
3.340000000000000000e+02 4.683389120308106612e+01
3.350000000000000000e+02 4.693433182720514196e+01
3.360000000000000000e+02 4.702770096641630460e+01
3.370000000000000000e+02 4.712104342296151316e+01
3.380000000000000000e+02 4.721697648326865249e+01
3.390000000000000000e+02 4.731170144166834035e+01
3.400000000000000000e+02 4.740743344890650235e+01
3.410000000000000000e+02 4.750323300509851521e+01
3.420000000000000000e+02 4.760097027380074053e+01
3.430000000000000000e+02 4.769425398414144013e+01
3.440000000000000000e+02 4.778596425079562948e+01
3.450000000000000000e+02 4.787728736673552987e+01
3.460000000000000000e+02 4.796785666611712884e+01
3.470000000000000000e+02 4.805175851799070585e+01
3.480000000000000000e+02 4.813549315444962673e+01
3.490000000000000000e+02 4.822150888507842836e+01
3.500000000000000000e+02 4.830091325877839381e+01
3.510000000000000000e+02 4.839392172651140811e+01
3.520000000000000000e+02 4.848838207883144236e+01
3.530000000000000000e+02 4.858029519399410390e+01
3.540000000000000000e+02 4.867260392531301250e+01
3.550000000000000000e+02 4.876639468857901960e+01
3.560000000000000000e+02 4.885453786299918022e+01
3.570000000000000000e+02 4.894396250615581323e+01
3.580000000000000000e+02 4.903312700304056904e+01
3.590000000000000000e+02 4.912013464422252440e+01
3.600000000000000000e+02 4.920345404097053432e+01
3.610000000000000000e+02 4.928585727063651234e+01
3.620000000000000000e+02 4.937046091839141582e+01
3.630000000000000000e+02 4.944722545006796111e+01
3.640000000000000000e+02 4.953682467427683633e+01
3.650000000000000000e+02 4.962395801865987011e+01
3.660000000000000000e+02 4.971072287542126844e+01
3.670000000000000000e+02 4.980154453179487462e+01
3.680000000000000000e+02 4.989126686312678061e+01
3.690000000000000000e+02 4.998104708888713787e+01
3.700000000000000000e+02 5.006574736999707653e+01
3.710000000000000000e+02 5.015787087249407961e+01
3.720000000000000000e+02 5.025105614361083894e+01
3.730000000000000000e+02 5.034437601698819265e+01
3.740000000000000000e+02 5.043498049706309416e+01
3.750000000000000000e+02 5.052515620567513110e+01
3.760000000000000000e+02 5.061210837279546837e+01
3.770000000000000000e+02 5.070351332787612364e+01
3.780000000000000000e+02 5.078810953659262140e+01
3.790000000000000000e+02 5.087735891443706748e+01
3.800000000000000000e+02 5.096644720464318823e+01
3.810000000000000000e+02 5.105211382644658613e+01
3.820000000000000000e+02 5.114208376446176629e+01
3.830000000000000000e+02 5.123054311553520535e+01
3.840000000000000000e+02 5.132498607277026537e+01
3.850000000000000000e+02 5.141342077416862821e+01
3.860000000000000000e+02 5.150243526374121927e+01
3.870000000000000000e+02 5.159165393431736391e+01
3.880000000000000000e+02 5.168008441590425406e+01
3.890000000000000000e+02 5.176476417894615167e+01
3.900000000000000000e+02 5.185104065699424325e+01
3.910000000000000000e+02 5.194234567152019366e+01
3.920000000000000000e+02 5.203640246016576754e+01
3.930000000000000000e+02 5.212564385509870135e+01
3.940000000000000000e+02 5.221170925557201770e+01
3.950000000000000000e+02 5.230115889605262680e+01
3.960000000000000000e+02 5.239346843021648681e+01
3.970000000000000000e+02 5.248491673089178988e+01
3.980000000000000000e+02 5.257881012758207362e+01
3.990000000000000000e+02 5.266914351151058327e+01
