# tau MSD
1.000000000000000000e+00 1.244855723890412547e+00
2.000000000000000000e+00 2.004880100158578315e+00
3.000000000000000000e+00 2.595874992824752425e+00
4.000000000000000000e+00 3.108272906413224845e+00
5.000000000000000000e+00 3.578597104488031810e+00
6.000000000000000000e+00 4.004145961522723063e+00
7.000000000000000000e+00 4.404966520206342828e+00
8.000000000000000000e+00 4.777544041637056260e+00
9.000000000000000000e+00 5.129106665209321569e+00
1.000000000000000000e+01 5.468281555699943119e+00
1.100000000000000000e+01 5.785661326891254674e+00
1.200000000000000000e+01 6.102413044697517108e+00
1.300000000000000000e+01 6.419685051604016479e+00
1.400000000000000000e+01 6.722205656546363706e+00
1.500000000000000000e+01 7.029488778509048075e+00
1.600000000000000000e+01 7.327249540937210703e+00
1.700000000000000000e+01 7.614088561222036589e+00
1.800000000000000000e+01 7.889722946321107599e+00
1.900000000000000000e+01 8.165025861957053266e+00
2.000000000000000000e+01 8.434769883086087106e+00
2.100000000000000000e+01 8.695154869176178636e+00
2.200000000000000000e+01 8.960876904334433846e+00
2.300000000000000000e+01 9.217708206052000364e+00
2.400000000000000000e+01 9.471200492167154650e+00
2.500000000000000000e+01 9.723322899708044531e+00
2.600000000000000000e+01 9.970685795692800113e+00
2.700000000000000000e+01 1.022058371885602135e+01
2.800000000000000000e+01 1.046731357724621958e+01
2.900000000000000000e+01 1.071599169403116925e+01
3.000000000000000000e+01 1.095941578087754564e+01
3.100000000000000000e+01 1.120487198911195037e+01
3.200000000000000000e+01 1.145769672507000436e+01
3.300000000000000000e+01 1.171172505323705160e+01
3.400000000000000000e+01 1.196406175115484416e+01
3.500000000000000000e+01 1.221720906282009089e+01
3.600000000000000000e+01 1.245983731014643858e+01
3.700000000000000000e+01 1.270701261095015511e+01
3.800000000000000000e+01 1.295109071373109266e+01
3.900000000000000000e+01 1.318702028860451669e+01
4.000000000000000000e+01 1.342472983519653518e+01
4.100000000000000000e+01 1.365560611865382867e+01
4.200000000000000000e+01 1.388454016260245361e+01
4.300000000000000000e+01 1.411466507139060056e+01
4.400000000000000000e+01 1.434601516395711229e+01
4.500000000000000000e+01 1.456647381581118594e+01
4.600000000000000000e+01 1.479183764666552925e+01
4.700000000000000000e+01 1.502079787722052018e+01
4.800000000000000000e+01 1.524625497361359905e+01
4.900000000000000000e+01 1.546764214373965274e+01
5.000000000000000000e+01 1.570097759226395517e+01
5.100000000000000000e+01 1.592981745380261493e+01
5.200000000000000000e+01 1.616259148525232092e+01
5.300000000000000000e+01 1.639641116393606524e+01
5.400000000000000000e+01 1.663510907887204837e+01
5.500000000000000000e+01 1.687344261979621152e+01
5.600000000000000000e+01 1.711497248109857594e+01
5.700000000000000000e+01 1.736361095103191587e+01
5.800000000000000000e+01 1.760636062272637048e+01
5.900000000000000000e+01 1.784323938237844587e+01
6.000000000000000000e+01 1.808042828091323528e+01
6.100000000000000000e+01 1.832430775696701986e+01
6.200000000000000000e+01 1.856795626754131590e+01
6.300000000000000000e+01 1.880911982612416722e+01
6.400000000000000000e+01 1.904417186715101096e+01
6.500000000000000000e+01 1.928216724703701246e+01
6.600000000000000000e+01 1.952392098952129018e+01
6.700000000000000000e+01 1.976321711428942507e+01
6.800000000000000000e+01 2.001404564467081215e+01
6.900000000000000000e+01 2.026134444671722079e+01
7.000000000000000000e+01 2.050696841560433370e+01
7.100000000000000000e+01 2.075614581288271765e+01
7.200000000000000000e+01 2.099794830242871058e+01
7.300000000000000000e+01 2.124363108872512385e+01
7.400000000000000000e+01 2.148945897981981901e+01
7.500000000000000000e+01 2.174950247218900046e+01
7.600000000000000000e+01 2.201921849315732516e+01
7.700000000000000000e+01 2.228349412772142557e+01
7.800000000000000000e+01 2.253275586117910834e+01
7.900000000000000000e+01 2.278499418606500271e+01
8.000000000000000000e+01 2.303893044443018923e+01
8.100000000000000000e+01 2.328882518193775297e+01
8.200000000000000000e+01 2.353291543030988819e+01
8.300000000000000000e+01 2.378713474079246737e+01
8.400000000000000000e+01 2.404345514120133487e+01
8.500000000000000000e+01 2.430460838885627339e+01
8.600000000000000000e+01 2.455677378977266656e+01
8.700000000000000000e+01 2.480838603652863128e+01
8.800000000000000000e+01 2.506429648773321972e+01
8.900000000000000000e+01 2.533429611339157361e+01
9.000000000000000000e+01 2.560145861979718873e+01
9.100000000000000000e+01 2.586086285416300257e+01
9.200000000000000000e+01 2.611354592820011078e+01
9.300000000000000000e+01 2.636962763123233700e+01
9.400000000000000000e+01 2.663104547736449845e+01
9.500000000000000000e+01 2.689405762587907844e+01
9.600000000000000000e+01 2.715357909619505961e+01
9.700000000000000000e+01 2.741317784787305456e+01
9.800000000000000000e+01 2.768177929985092689e+01
9.900000000000000000e+01 2.794632668086878979e+01
1.000000000000000000e+02 2.820397544880332674e+01
1.010000000000000000e+02 2.846779465593642300e+01
1.020000000000000000e+02 2.873189204725256829e+01
1.030000000000000000e+02 2.899927331192526836e+01
1.040000000000000000e+02 2.926017502239723100e+01
1.050000000000000000e+02 2.953260944049367609e+01
1.060000000000000000e+02 2.979551079501045052e+01
1.070000000000000000e+02 3.004717277014555066e+01
1.080000000000000000e+02 3.030737818506912262e+01
1.090000000000000000e+02 3.056723267397271115e+01
1.100000000000000000e+02 3.083364576489989517e+01
1.110000000000000000e+02 3.109559228602346437e+01
1.120000000000000000e+02 3.136168998691145759e+01
1.130000000000000000e+02 3.161689180830135371e+01
1.140000000000000000e+02 3.187184569421766156e+01
1.150000000000000000e+02 3.212566833836288538e+01
1.160000000000000000e+02 3.237495426512611374e+01
1.170000000000000000e+02 3.263986381550851945e+01
1.180000000000000000e+02 3.290368300564362158e+01
1.190000000000000000e+02 3.316856148958301276e+01
1.200000000000000000e+02 3.342793989328861670e+01
1.210000000000000000e+02 3.368989774557567074e+01
1.220000000000000000e+02 3.396149441442059214e+01
1.230000000000000000e+02 3.424402115850742945e+01
1.240000000000000000e+02 3.450582760535314009e+01
1.250000000000000000e+02 3.477605711549482947e+01
1.260000000000000000e+02 3.504246646498661022e+01
1.270000000000000000e+02 3.530139006229904197e+01
1.280000000000000000e+02 3.556198076542920461e+01
1.290000000000000000e+02 3.583462203070179442e+01
1.300000000000000000e+02 3.610374409046303867e+01
1.310000000000000000e+02 3.637340010776698307e+01
1.320000000000000000e+02 3.663992181808173143e+01
1.330000000000000000e+02 3.689664478954457394e+01
1.340000000000000000e+02 3.716881951952426277e+01
1.350000000000000000e+02 3.744082697375635860e+01
1.360000000000000000e+02 3.770382298680453204e+01
1.370000000000000000e+02 3.798263503497648941e+01
1.380000000000000000e+02 3.825170047185092415e+01
1.390000000000000000e+02 3.853447865210470979e+01
1.400000000000000000e+02 3.881837914088718122e+01
1.410000000000000000e+02 3.909209291400723174e+01
1.420000000000000000e+02 3.937543214283943627e+01
1.430000000000000000e+02 3.965545007938232658e+01
1.440000000000000000e+02 3.993125127155458642e+01
1.450000000000000000e+02 4.021476188733430490e+01
1.460000000000000000e+02 4.049893043063514853e+01
1.470000000000000000e+02 4.076976064323473992e+01
1.480000000000000000e+02 4.105467629579950994e+01
1.490000000000000000e+02 4.133344184444365510e+01
1.500000000000000000e+02 4.161165843105915485e+01
1.510000000000000000e+02 4.189262399819742910e+01
1.520000000000000000e+02 4.217259277295353570e+01
1.530000000000000000e+02 4.246982435523788979e+01
1.540000000000000000e+02 4.274778895098493336e+01
1.550000000000000000e+02 4.303086658980166135e+01
1.560000000000000000e+02 4.330677824051947056e+01
1.570000000000000000e+02 4.356833241411358415e+01
1.580000000000000000e+02 4.384194272066893205e+01
1.590000000000000000e+02 4.411876484137900434e+01
1.600000000000000000e+02 4.439040563058549793e+01
1.610000000000000000e+02 4.466276882049029950e+01
1.620000000000000000e+02 4.492721857623777026e+01
1.630000000000000000e+02 4.519702803612363340e+01
1.640000000000000000e+02 4.547157130016284299e+01
1.650000000000000000e+02 4.573867615004640186e+01
1.660000000000000000e+02 4.601872011555991548e+01
1.670000000000000000e+02 4.628962032416247752e+01
1.680000000000000000e+02 4.657241639373917508e+01
1.690000000000000000e+02 4.685465634623523101e+01
1.700000000000000000e+02 4.714282195055466929e+01
1.710000000000000000e+02 4.743968066194351962e+01
1.720000000000000000e+02 4.773743282396419829e+01
1.730000000000000000e+02 4.802819361310165647e+01
1.740000000000000000e+02 4.832354284884729623e+01
1.750000000000000000e+02 4.862335426567452856e+01
1.760000000000000000e+02 4.892187053945302466e+01
1.770000000000000000e+02 4.922262077817097037e+01
1.780000000000000000e+02 4.952222352069080813e+01
1.790000000000000000e+02 4.983266653748557928e+01
1.800000000000000000e+02 5.013384342349954892e+01
1.810000000000000000e+02 5.043899485085367473e+01
1.820000000000000000e+02 5.073221843168067835e+01
1.830000000000000000e+02 5.101736183950373515e+01
1.840000000000000000e+02 5.132313943343270779e+01
1.850000000000000000e+02 5.161975844077916520e+01
1.860000000000000000e+02 5.191783077946180924e+01
1.870000000000000000e+02 5.222057864944390815e+01
1.880000000000000000e+02 5.252839621037484363e+01
1.890000000000000000e+02 5.282502368468231424e+01
1.900000000000000000e+02 5.313967406687610406e+01
1.910000000000000000e+02 5.345455925497925875e+01
1.920000000000000000e+02 5.374955779576108483e+01
1.930000000000000000e+02 5.404936716913039874e+01
1.940000000000000000e+02 5.435245484108489222e+01
1.950000000000000000e+02 5.466295075727822450e+01
1.960000000000000000e+02 5.496771299494692187e+01
1.970000000000000000e+02 5.526413876079619314e+01
1.980000000000000000e+02 5.555733550297541257e+01
1.990000000000000000e+02 5.585618681365314586e+01
2.000000000000000000e+02 5.616138296720740186e+01
2.010000000000000000e+02 5.669853555279581059e+01
2.020000000000000000e+02 5.723977415688661097e+01
2.030000000000000000e+02 5.779645099347716553e+01
2.040000000000000000e+02 5.834292989659071083e+01
2.050000000000000000e+02 5.886925416343841277e+01
2.060000000000000000e+02 5.940987973658202748e+01
2.070000000000000000e+02 5.993734042804439355e+01
2.080000000000000000e+02 6.047061553611982987e+01
2.090000000000000000e+02 6.100164519356130910e+01
2.100000000000000000e+02 6.153426934915083990e+01
2.110000000000000000e+02 6.205881639965533481e+01
2.120000000000000000e+02 6.259803607250250934e+01
2.130000000000000000e+02 6.314333488726840216e+01
2.140000000000000000e+02 6.368661737402830880e+01
2.150000000000000000e+02 6.424357374272004506e+01
2.160000000000000000e+02 6.480526604820869352e+01
2.170000000000000000e+02 6.537056755785290818e+01
2.180000000000000000e+02 6.591561910852917094e+01
2.190000000000000000e+02 6.647126607256909381e+01
2.200000000000000000e+02 6.701419269730025974e+01
2.210000000000000000e+02 6.754560771377508388e+01
2.220000000000000000e+02 6.807666089906878426e+01
2.230000000000000000e+02 6.860594587835237235e+01
2.240000000000000000e+02 6.914201568012288135e+01
2.250000000000000000e+02 6.968277395365709026e+01
2.260000000000000000e+02 7.022886982485238150e+01
2.270000000000000000e+02 7.077795113924086934e+01
2.280000000000000000e+02 7.132739610486595438e+01
2.290000000000000000e+02 7.186907114063498625e+01
2.300000000000000000e+02 7.241397768977893179e+01
2.310000000000000000e+02 7.298187442875338604e+01
2.320000000000000000e+02 7.353765358255091655e+01
2.330000000000000000e+02 7.411046630633582311e+01
2.340000000000000000e+02 7.466396574292583921e+01
2.350000000000000000e+02 7.524020985650288651e+01
2.360000000000000000e+02 7.581013737681180942e+01
2.370000000000000000e+02 7.637844035081221250e+01
2.380000000000000000e+02 7.695219698347260362e+01
2.390000000000000000e+02 7.751889979230739414e+01
2.400000000000000000e+02 7.807488055320325770e+01
2.410000000000000000e+02 7.863137762861657620e+01
2.420000000000000000e+02 7.919672100674641513e+01
2.430000000000000000e+02 7.977314471487306946e+01
2.440000000000000000e+02 8.034569217401600838e+01
2.450000000000000000e+02 8.092875014628101837e+01
2.460000000000000000e+02 8.150956499256814425e+01
2.470000000000000000e+02 8.208148560330231192e+01
2.480000000000000000e+02 8.265017311896886554e+01
2.490000000000000000e+02 8.320917716552693832e+01
2.500000000000000000e+02 8.378655276361487836e+01
2.510000000000000000e+02 8.438443741042468105e+01
2.520000000000000000e+02 8.496469266147558130e+01
2.530000000000000000e+02 8.555742105930612240e+01
2.540000000000000000e+02 8.615838771558135534e+01
2.550000000000000000e+02 8.675482512584314065e+01
2.560000000000000000e+02 8.735627163908071680e+01
2.570000000000000000e+02 8.797103250665493590e+01
2.580000000000000000e+02 8.859426309662579513e+01
2.590000000000000000e+02 8.918192862743140381e+01
2.600000000000000000e+02 8.978307980576025216e+01
2.610000000000000000e+02 9.038503325010404410e+01
2.620000000000000000e+02 9.100272991314014348e+01
2.630000000000000000e+02 9.162048015548022306e+01
2.640000000000000000e+02 9.224016427017134845e+01
2.650000000000000000e+02 9.285739176675946283e+01
2.660000000000000000e+02 9.348118297428817414e+01
2.670000000000000000e+02 9.409573446472367664e+01
2.680000000000000000e+02 9.471293068139969762e+01
2.690000000000000000e+02 9.529884650479135644e+01
2.700000000000000000e+02 9.588829045566639309e+01
2.710000000000000000e+02 9.648020104200077185e+01
2.720000000000000000e+02 9.708723521510361820e+01
2.730000000000000000e+02 9.768176080967123198e+01
2.740000000000000000e+02 9.830875147909183909e+01
2.750000000000000000e+02 9.892412244479920957e+01
2.760000000000000000e+02 9.952461717215496151e+01
2.770000000000000000e+02 1.001461059480226510e+02
2.780000000000000000e+02 1.007574287290372865e+02
2.790000000000000000e+02 1.013683663315682679e+02
2.800000000000000000e+02 1.019640333824212917e+02
2.810000000000000000e+02 1.025862650414721031e+02
2.820000000000000000e+02 1.032125357976281350e+02
2.830000000000000000e+02 1.038255505278249160e+02
2.840000000000000000e+02 1.044478785493122928e+02
2.850000000000000000e+02 1.050781510512649248e+02
2.860000000000000000e+02 1.056998927351295947e+02
2.870000000000000000e+02 1.063190065483948814e+02
2.880000000000000000e+02 1.069519616388483882e+02
2.890000000000000000e+02 1.075871113422239347e+02
2.900000000000000000e+02 1.082177503418693334e+02
2.910000000000000000e+02 1.088451674868990295e+02
2.920000000000000000e+02 1.094779125043065875e+02
2.930000000000000000e+02 1.100741693030460198e+02
2.940000000000000000e+02 1.106674814977422727e+02
2.950000000000000000e+02 1.112916428902621959e+02
2.960000000000000000e+02 1.118882667436903802e+02
2.970000000000000000e+02 1.124780177654404127e+02
2.980000000000000000e+02 1.130859965612737454e+02
2.990000000000000000e+02 1.137125711465462530e+02
3.000000000000000000e+02 1.143506371097694796e+02
3.010000000000000000e+02 1.149585621385159158e+02
3.020000000000000000e+02 1.156015442236550115e+02
3.030000000000000000e+02 1.162581295477576901e+02
3.040000000000000000e+02 1.169403139553450188e+02
3.050000000000000000e+02 1.176397500564218319e+02
3.060000000000000000e+02 1.183176304116788771e+02
3.070000000000000000e+02 1.190006715662473198e+02
3.080000000000000000e+02 1.196184844601738746e+02
3.090000000000000000e+02 1.202763005020727007e+02
3.100000000000000000e+02 1.209612511099120979e+02
3.110000000000000000e+02 1.215903131289425545e+02
3.120000000000000000e+02 1.222542558340173144e+02
3.130000000000000000e+02 1.229145629583556598e+02
3.140000000000000000e+02 1.235588861529726188e+02
3.150000000000000000e+02 1.242272658544642496e+02
3.160000000000000000e+02 1.248752590196720149e+02
3.170000000000000000e+02 1.255344460577607038e+02
3.180000000000000000e+02 1.261702814023575172e+02
3.190000000000000000e+02 1.267944600622575848e+02
3.200000000000000000e+02 1.274396223399250658e+02
3.210000000000000000e+02 1.280577418481564962e+02
3.220000000000000000e+02 1.286745146928212478e+02
3.230000000000000000e+02 1.292914970085318487e+02
3.240000000000000000e+02 1.298935843285879059e+02
3.250000000000000000e+02 1.304754317582803651e+02
3.260000000000000000e+02 1.310358843822310746e+02
3.270000000000000000e+02 1.315398962857163667e+02
3.280000000000000000e+02 1.321062239568856569e+02
3.290000000000000000e+02 1.326671109692101425e+02
3.300000000000000000e+02 1.331971840219791261e+02
3.310000000000000000e+02 1.337793344745347497e+02
3.320000000000000000e+02 1.343324714660362815e+02
3.330000000000000000e+02 1.349105557694824142e+02
3.340000000000000000e+02 1.355302832480250856e+02
3.350000000000000000e+02 1.361449853232858231e+02
3.360000000000000000e+02 1.367508618897553276e+02
3.370000000000000000e+02 1.373904961373872311e+02
3.380000000000000000e+02 1.380074871474322435e+02
3.390000000000000000e+02 1.385969106808520337e+02
3.400000000000000000e+02 1.392251836061469135e+02
3.410000000000000000e+02 1.398363965300501661e+02
3.420000000000000000e+02 1.404604117481648586e+02
3.430000000000000000e+02 1.410476171354722510e+02
3.440000000000000000e+02 1.416371613783139196e+02
3.450000000000000000e+02 1.421891919961228155e+02
3.460000000000000000e+02 1.427522569055115014e+02
3.470000000000000000e+02 1.433625952201937253e+02
3.480000000000000000e+02 1.440027898083612286e+02
3.490000000000000000e+02 1.446181163008165242e+02
3.500000000000000000e+02 1.451944630628107973e+02
3.510000000000000000e+02 1.457750975431250708e+02
3.520000000000000000e+02 1.463644227372461728e+02
3.530000000000000000e+02 1.470143359480641152e+02
3.540000000000000000e+02 1.476913823929957061e+02
3.550000000000000000e+02 1.483960268836191858e+02
3.560000000000000000e+02 1.490300746417619280e+02
3.570000000000000000e+02 1.496592468614751112e+02
3.580000000000000000e+02 1.503393450987217932e+02
3.590000000000000000e+02 1.510061731806490570e+02
3.600000000000000000e+02 1.516851304306921406e+02
3.610000000000000000e+02 1.523715026840469591e+02
3.620000000000000000e+02 1.530689057691377570e+02
3.630000000000000000e+02 1.536827692043700893e+02
3.640000000000000000e+02 1.544201206042591821e+02
3.650000000000000000e+02 1.551633909586826974e+02
3.660000000000000000e+02 1.558741031529798704e+02
3.670000000000000000e+02 1.566856637073767331e+02
3.680000000000000000e+02 1.574862264074974405e+02
3.690000000000000000e+02 1.583696589561390624e+02
3.700000000000000000e+02 1.592090440417993022e+02
3.710000000000000000e+02 1.601521639902663878e+02
3.720000000000000000e+02 1.609949728162838767e+02
3.730000000000000000e+02 1.617986366424926246e+02
3.740000000000000000e+02 1.625802439320681572e+02
3.750000000000000000e+02 1.633001642530287540e+02
3.760000000000000000e+02 1.640556565740556039e+02
3.770000000000000000e+02 1.647955217271018000e+02
3.780000000000000000e+02 1.653443413129932651e+02
3.790000000000000000e+02 1.659408790053117855e+02
3.800000000000000000e+02 1.665221685640967735e+02
3.810000000000000000e+02 1.671187351556792180e+02
3.820000000000000000e+02 1.677704790866059739e+02
3.830000000000000000e+02 1.683096593804272345e+02
3.840000000000000000e+02 1.689558858874370912e+02
3.850000000000000000e+02 1.696493473437474790e+02
3.860000000000000000e+02 1.704499171402728734e+02
3.870000000000000000e+02 1.713593953964175114e+02
3.880000000000000000e+02 1.722513249190633644e+02
3.890000000000000000e+02 1.730495951452380154e+02
3.900000000000000000e+02 1.739403885138216026e+02
3.910000000000000000e+02 1.747152478808155820e+02
3.920000000000000000e+02 1.753102206479071867e+02
3.930000000000000000e+02 1.758168615583492453e+02
3.940000000000000000e+02 1.764255097986838905e+02
3.950000000000000000e+02 1.773182432250073362e+02
3.960000000000000000e+02 1.780791630207430387e+02
3.970000000000000000e+02 1.782188070674223184e+02
3.980000000000000000e+02 1.787232987966048938e+02
3.990000000000000000e+02 1.790789515533413123e+02
